#PSTAR: Stopping Powers and Range Tables for Protons
#
#HYDROGEN                                                                
#
#Kinetic   Total     CSDA      
#Energy    Stp. Pow. Range     
#MeV       MeV cm2/g g/cm2     
#
1.000E-03 9.730E+02 1.091E-06 
1.500E-03 1.087E+03 1.574E-06 
2.000E-03 1.197E+03 2.012E-06 
2.500E-03 1.300E+03 2.413E-06 
3.000E-03 1.398E+03 2.783E-06 
4.000E-03 1.578E+03 3.455E-06 
5.000E-03 1.741E+03 4.058E-06 
6.000E-03 1.890E+03 4.609E-06 
7.000E-03 2.030E+03 5.119E-06 
8.000E-03 2.161E+03 5.597E-06 
9.000E-03 2.284E+03 6.047E-06 
1.000E-02 2.402E+03 6.473E-06 
1.250E-02 2.621E+03 7.467E-06 
1.500E-02 2.807E+03 8.388E-06 
1.750E-02 2.968E+03 9.254E-06 
2.000E-02 3.107E+03 1.008E-05 
2.250E-02 3.229E+03 1.087E-05 
2.500E-02 3.335E+03 1.163E-05 
2.750E-02 3.427E+03 1.237E-05 
3.000E-02 3.506E+03 1.309E-05 
3.500E-02 3.633E+03 1.449E-05 
4.000E-02 3.723E+03 1.584E-05 
4.500E-02 3.783E+03 1.718E-05 
5.000E-02 3.818E+03 1.849E-05 
5.500E-02 3.833E+03 1.980E-05 
6.000E-02 3.831E+03 2.110E-05 
6.500E-02 3.816E+03 2.241E-05 
7.000E-02 3.789E+03 2.372E-05 
7.500E-02 3.753E+03 2.505E-05 
8.000E-02 3.710E+03 2.639E-05 
8.500E-02 3.661E+03 2.775E-05 
9.000E-02 3.608E+03 2.912E-05 
9.500E-02 3.552E+03 3.052E-05 
1.000E-01 3.493E+03 3.194E-05 
1.250E-01 3.188E+03 3.943E-05 
1.500E-01 2.895E+03 4.766E-05 
1.750E-01 2.633E+03 5.672E-05 
2.000E-01 2.406E+03 6.666E-05 
2.250E-01 2.207E+03 7.752E-05 
2.500E-01 2.034E+03 8.933E-05 
2.750E-01 1.884E+03 1.021E-04 
3.000E-01 1.755E+03 1.159E-04 
3.500E-01 1.546E+03 1.463E-04 
4.000E-01 1.385E+03 1.805E-04 
4.500E-01 1.260E+03 2.184E-04 
5.000E-01 1.160E+03 2.598E-04 
5.500E-01 1.078E+03 3.046E-04 
6.000E-01 1.009E+03 3.526E-04 
6.500E-01 9.481E+02 4.037E-04 
7.000E-01 8.952E+02 4.580E-04 
7.500E-01 8.485E+02 5.154E-04 
8.000E-01 8.068E+02 5.759E-04 
8.500E-01 7.695E+02 6.393E-04 
9.000E-01 7.357E+02 7.058E-04 
9.500E-01 7.051E+02 7.753E-04 
1.000E+00 6.771E+02 8.476E-04 
1.250E+00 5.673E+02 1.253E-03 
1.500E+00 4.902E+02 1.728E-03 
1.750E+00 4.329E+02 2.272E-03 
2.000E+00 3.885E+02 2.883E-03 
2.250E+00 3.530E+02 3.559E-03 
2.500E+00 3.238E+02 4.299E-03 
2.750E+00 2.995E+02 5.102E-03 
3.000E+00 2.788E+02 5.968E-03 
3.500E+00 2.455E+02 7.884E-03 
4.000E+00 2.197E+02 1.004E-02 
4.500E+00 1.992E+02 1.243E-02 
5.000E+00 1.825E+02 1.506E-02 
5.500E+00 1.685E+02 1.791E-02 
6.000E+00 1.567E+02 2.099E-02 
6.500E+00 1.465E+02 2.429E-02 
7.000E+00 1.377E+02 2.782E-02 
7.500E+00 1.299E+02 3.156E-02 
8.000E+00 1.230E+02 3.551E-02 
8.500E+00 1.169E+02 3.969E-02 
9.000E+00 1.114E+02 4.407E-02 
9.500E+00 1.065E+02 4.866E-02 
1.000E+01 1.019E+02 5.346E-02 
1.250E+01 8.444E+01 8.054E-02 
1.500E+01 7.239E+01 1.126E-01 
1.750E+01 6.356E+01 1.496E-01 
2.000E+01 5.679E+01 1.913E-01 
2.500E+01 4.707E+01 2.884E-01 
2.750E+01 4.346E+01 3.438E-01 
3.000E+01 4.041E+01 4.035E-01 
3.500E+01 3.554E+01 5.357E-01 
4.000E+01 3.182E+01 6.847E-01 
4.500E+01 2.887E+01 8.499E-01 
5.000E+01 2.649E+01 1.031E+00 
5.500E+01 2.451E+01 1.227E+00 
6.000E+01 2.285E+01 1.439E+00 
6.500E+01 2.143E+01 1.665E+00 
7.000E+01 2.020E+01 1.905E+00 
7.500E+01 1.913E+01 2.160E+00 
8.000E+01 1.818E+01 2.428E+00 
8.500E+01 1.734E+01 2.710E+00 
9.000E+01 1.659E+01 3.005E+00 
9.500E+01 1.591E+01 3.312E+00 
1.000E+02 1.530E+01 3.633E+00 
1.250E+02 1.295E+01 5.417E+00 
1.500E+02 1.135E+01 7.485E+00 
1.750E+02 1.020E+01 9.813E+00 
2.000E+02 9.328E+00 1.238E+01 
2.250E+02 8.645E+00 1.517E+01 
2.500E+02 8.096E+00 1.816E+01 
2.750E+02 7.645E+00 2.134E+01 
3.000E+02 7.269E+00 2.469E+01 
3.500E+02 6.679E+00 3.188E+01 
4.000E+02 6.238E+00 3.964E+01 
4.500E+02 5.897E+00 4.789E+01 
5.000E+02 5.627E+00 5.658E+01 
5.500E+02 5.409E+00 6.565E+01 
6.000E+02 5.230E+00 7.505E+01 
6.500E+02 5.081E+00 8.476E+01 
7.000E+02 4.955E+00 9.472E+01 
7.500E+02 4.848E+00 1.049E+02 
8.000E+02 4.757E+00 1.153E+02 
8.500E+02 4.678E+00 1.259E+02 
9.000E+02 4.609E+00 1.367E+02 
9.500E+02 4.549E+00 1.476E+02 
1.000E+03 4.497E+00 1.587E+02 
1.500E+03 4.213E+00 2.743E+02 
2.000E+03 4.125E+00 3.945E+02 
2.500E+03 4.107E+00 5.160E+02 
3.000E+03 4.118E+00 6.377E+02 
4.000E+03 4.172E+00 8.791E+02 
5.000E+03 4.240E+00 1.117E+03 
6.000E+03 4.307E+00 1.351E+03 
7.000E+03 4.372E+00 1.581E+03 
8.000E+03 4.431E+00 1.808E+03 
9.000E+03 4.487E+00 2.033E+03 
1.000E+04 4.539E+00 2.254E+03
